288.3067122,-0.555335912,1026.371896
288.3125818,-0.551049738,1026.392791
288.3184513,-0.554088284,1026.413687
288.3243208,-0.541078243,1026.434582
288.3301903,-0.533920705,1026.455478
288.3360599,-0.534060188,1026.476373
288.3419294,-0.529173178,1026.497269
288.3477989,-0.515264583,1026.518164
288.3536685,-0.522293727,1026.53906
288.359538,-0.529927992,1026.559955
288.3654075,-0.530087223,1026.580851
288.371277,-0.577905458,1026.601746
288.3771466,-0.601191327,1026.622642
288.3830161,-0.592089153,1026.643537
288.3888856,-0.597535334,1026.664433
288.3947552,-0.602320055,1026.685328
288.4006247,-0.557321925,1026.706224
288.4064942,-0.539618098,1026.727119
288.4123637,-0.561128519,1026.748015
288.4182333,-0.553920153,1026.76891
288.4241028,-0.576148832,1026.789806
288.4299723,-0.599246596,1026.810701
288.4358419,-0.596161767,1026.831597
288.4417114,-0.575893209,1026.852493
288.4475809,-0.593158336,1026.873388
288.4534504,-0.596742763,1026.894284
288.45932,-0.592503329,1026.915179
288.4651895,-0.595412604,1026.936075
288.471059,-0.574575189,1026.95697
288.4769286,-0.578963322,1026.977866
288.4827981,-0.577275809,1026.998761
288.4886676,-0.582979083,1027.019657
288.4945371,-0.581807466,1027.040552
288.5004067,-0.573900352,1027.061448
288.5062762,-0.555955848,1027.082343
288.5121457,-0.542102909,1027.103239
288.5180153,-0.563466118,1027.124134
288.5238848,-0.56226667,1027.14503
288.5297543,-0.561294487,1027.165925
288.5356238,-0.559380662,1027.186821
288.5414934,-0.548942666,1027.207716
288.5473629,-0.543471255,1027.228612
288.5532324,-0.54723253,1027.249507
288.559102,-0.568490102,1027.270403
288.5649715,-0.57186184,1027.291299
288.570841,-0.57441604,1027.312194
288.5767105,-0.579642165,1027.33309
288.5825801,-0.550966499,1027.353985
288.5884496,-0.547243818,1027.374881
288.5943191,-0.554370266,1027.395776
288.6001887,-0.53766605,1027.416672
288.6060582,-0.574665918,1027.437567
288.6119277,-0.587405208,1027.458463
288.6177972,-0.621104532,1027.479358
288.6236668,-0.629806994,1027.500254
288.6295363,-0.621121518,1027.521149
288.6354058,-0.599134269,1027.542045
288.6412754,-0.546514011,1027.56294
288.6471449,-0.550425612,1027.583836
288.6530144,-0.555110908,1027.604731
288.658884,-0.584120811,1027.625627
288.6647535,-0.607789037,1027.646522
288.670623,-0.603586429,1027.667418
288.6764925,-0.575700425,1027.688313
288.6823621,-0.550459165,1027.709209
288.6882316,-0.553277606,1027.730104
288.6941011,-0.548623541,1027.751
288.6999707,-0.562543606,1027.771896
288.7058402,-0.561052197,1027.792791
288.7117097,-0.548449396,1027.813687
288.7175792,-0.563346672,1027.834582
288.7234488,-0.561676372,1027.855478
288.7293183,-0.570362832,1027.876373
288.7351878,-0.570083858,1027.897269
288.7410574,-0.567247816,1027.918164
288.7469269,-0.548589628,1027.93906
288.7527964,-0.546816617,1027.959955
288.7586659,-0.554699374,1027.980851
288.7645355,-0.569519022,1028.001746
288.770405,-0.579877158,1028.022642
288.7762745,-0.586561494,1028.043537
288.7821441,-0.56938968,1028.064433
288.7880136,-0.556244581,1028.085328
288.7938831,-0.551677514,1028.106224
288.7997526,-0.539427512,1028.127119
288.8056222,-0.558034095,1028.148015
288.8114917,-0.555510042,1028.16891
288.8173612,-0.530212451,1028.189806
288.8232308,-0.534668747,1028.210701
288.8291003,-0.536944363,1028.231597
288.8349698,-0.521523217,1028.252493
288.8408393,-0.56272822,1028.273388
288.8467089,-0.538258245,1028.294284
288.8525784,-0.507437541,1028.315179
288.8584479,-0.521023795,1028.336075
288.8643175,-0.504671018,1028.35697
288.870187,-0.53107536,1028.377866
288.8760565,-0.540447154,1028.398761
288.881926,-0.536361698,1028.419657
288.8877956,-0.551300951,1028.440552
288.8936651,-0.551760749,1028.461448
288.8995346,-0.557732994,1028.482343
288.9054042,-0.555169859,1028.503239
288.9112737,-0.564049544,1028.524134
288.9171432,-0.5569789,1028.54503
288.9230127,-0.559403805,1028.565925
288.9288823,-0.539466063,1028.586821
288.9347518,-0.513630084,1028.607716
288.9406213,-0.505987418,1028.628612
288.9464909,-0.498726892,1028.649507
288.9523604,-0.495604862,1028.670403
288.9582299,-0.535076866,1028.691299
288.9640994,-0.543786099,1028.712194
288.969969,-0.539836326,1028.73309
288.9758385,-0.570818135,1028.753985
288.981708,-0.529628482,1028.774881
288.9875776,-0.510508296,1028.795776
288.9934471,-0.525539665,1028.816672
288.9993166,-0.514970266,1028.837567
289.0051861,-0.548066868,1028.858463
289.0110557,-0.549366209,1028.879358
289.0169252,-0.540425378,1028.900254
289.0227947,-0.529464571,1028.921149
289.0286643,-0.503454523,1028.942045
289.0345338,-0.544887419,1028.96294
289.0404033,-0.519661611,1028.983836
289.0462728,-0.536375477,1029.004731
289.0521424,-0.516963468,1029.025627
289.0580119,-0.490091662,1029.046522
289.0638814,-0.531472037,1029.067418
289.069751,-0.529672163,1029.088313
289.0756205,-0.549033343,1029.109209
289.08149,-0.559790085,1029.130104
289.0873596,-0.554481569,1029.151
289.0932291,-0.552890409,1029.171896
289.0990986,-0.545871783,1029.192791
289.1049681,-0.535245463,1029.213687
289.1108377,-0.532584436,1029.234582
289.1167072,-0.537317197,1029.255478
289.1225767,-0.538842433,1029.276373
289.1284463,-0.560148393,1029.297269
289.1343158,-0.555706741,1029.318164
289.1401853,-0.548110323,1029.33906
289.1460548,-0.577882708,1029.359955
289.1519244,-0.530609034,1029.380851
289.1577939,-0.512181925,1029.401746
289.1636634,-0.523989516,1029.422642
289.169533,-0.494174891,1029.443537
289.1754025,-0.520239714,1029.464433
289.181272,-0.544872126,1029.485328
289.1871415,-0.548975729,1029.506224
289.1930111,-0.542702491,1029.527119
289.1988806,-0.533868775,1029.548015
289.2047501,-0.541024131,1029.56891
289.2106197,-0.516584876,1029.589806
289.2164892,-0.532286539,1029.610701
289.2223587,-0.539034236,1029.631597
289.2282282,-0.524811067,1029.652493
289.2340978,-0.540360279,1029.673388
289.2399673,-0.567315886,1029.694284
289.2458368,-0.577149057,1029.715179
289.2517064,-0.585488623,1029.736075
289.2575759,-0.585064118,1029.75697
289.2634454,-0.536245537,1029.777866
289.2693149,-0.520071873,1029.798761
289.2751845,-0.539509328,1029.819657
289.281054,-0.530443581,1029.840552
289.2869235,-0.552827636,1029.861448
289.2927931,-0.55317728,1029.882343
289.2986626,-0.532952912,1029.903239
289.3045321,-0.547469453,1029.924134
289.3104016,-0.544987314,1029.94503
289.3162712,-0.566874152,1029.965925
289.3221407,-0.556075701,1029.986821
289.3280102,-0.546908834,1030.007716
289.3338798,-0.535818129,1030.028612
289.3397493,-0.518971533,1030.049507
289.3456188,-0.524985128,1030.070403
289.3514883,-0.526628655,1030.091299
289.3573579,-0.524632842,1030.112194
289.3632274,-0.520678515,1030.13309
289.3690969,-0.525514398,1030.153985
289.3749665,-0.509623259,1030.174881
289.380836,-0.53012109,1030.195776
289.3867055,-0.520146236,1030.216672
289.392575,-0.491095892,1030.237567
289.3984446,-0.513196971,1030.258463
289.4043141,-0.501372112,1030.279358
289.4101836,-0.521038358,1030.300254
289.4160532,-0.529261167,1030.321149
289.4219227,-0.516671471,1030.342045
289.4277922,-0.511932319,1030.36294
289.4336617,-0.49702618,1030.383836
289.4395313,-0.516125854,1030.404731
289.4454008,-0.538447724,1030.425627
289.4512703,-0.538053991,1030.446522
289.4571399,-0.544391302,1030.467418
289.4630094,-0.544620161,1030.488313
289.4688789,-0.550194268,1030.509209
289.4747484,-0.556768914,1030.530104
289.480618,-0.562212485,1030.551
289.4864875,-0.558342973,1030.571896
289.492357,-0.550210271,1030.592791
289.4982266,-0.55816266,1030.613687
289.5040961,-0.563127895,1030.634582
289.5099656,-0.578344176,1030.655478
289.5158352,-0.560864592,1030.676373
289.5217047,-0.5429485,1030.697269
289.5275742,-0.53246041,1030.718164
289.5334437,-0.513826164,1030.73906
289.5393133,-0.506563795,1030.759955
289.5451828,-0.5474617,1030.780851
289.5510523,-0.540112711,1030.801746
289.5569219,-0.53579654,1030.822642
289.5627914,-0.529465512,1030.843537
289.5686609,-0.508191488,1030.864433
289.5745304,-0.515791455,1030.885328
289.5804,-0.518638472,1030.906224
289.5862695,-0.536358661,1030.927119
289.592139,-0.544953568,1030.948015
289.5980086,-0.559170895,1030.96891
289.6038781,-0.543351638,1030.989806
289.6097476,-0.515848552,1031.010701
289.6156171,-0.47200477,1031.031597
289.6214867,-0.476423151,1031.052493
289.6273562,-0.487338643,1031.073388
289.6332257,-0.517876108,1031.094284
289.6390953,-0.561226139,1031.115179
289.6449648,-0.538684549,1031.136075
289.6508343,-0.510019421,1031.15697
289.6567038,-0.500584149,1031.177866
289.6625734,-0.483477237,1031.198761
289.6684429,-0.501817478,1031.219657
289.6743124,-0.553418134,1031.240552
289.680182,-0.552887559,1031.261448
289.6860515,-0.557885453,1031.282343
289.691921,-0.547950115,1031.303239
289.6977905,-0.538243968,1031.324134
289.7036601,-0.541335661,1031.34503
289.7095296,-0.528801936,1031.365925
289.7153991,-0.519723198,1031.386821
289.7212687,-0.513284128,1031.407716
289.7271382,-0.514218732,1031.428612
289.7330077,-0.501770346,1031.449507
289.7388772,-0.499886245,1031.470403
289.7447468,-0.510961454,1031.491299
289.7506163,-0.518189407,1031.512194
289.7564858,-0.52347707,1031.53309
289.7623554,-0.528954901,1031.553985
289.7682249,-0.506188105,1031.574881
289.7740944,-0.459275743,1031.595776
289.7799639,-0.464544085,1031.616672
289.7858335,-0.462787013,1031.637567
289.791703,-0.458831198,1031.658463
289.7975725,-0.489467238,1031.679358
289.8034421,-0.492898966,1031.700254
289.8093116,-0.48532359,1031.721149
289.8151811,-0.502778095,1031.742045
289.8210506,-0.51559966,1031.76294
289.8269202,-0.495319424,1031.783836
289.8327897,-0.511713305,1031.804731
289.8386592,-0.495772918,1031.825627
289.8445288,-0.485657564,1031.846522
289.8503983,-0.513827995,1031.867418
289.8562678,-0.482703398,1031.888313
289.8621373,-0.474665502,1031.909209
289.8680069,-0.462448746,1031.930104
289.8738764,-0.439033463,1031.951
289.8797459,-0.460222059,1031.971896
289.8856155,-0.459877506,1031.992791
289.891485,-0.470430301,1032.013687
289.8973545,-0.477454404,1032.034582
289.903224,-0.465151307,1032.055478
289.9090936,-0.48125067,1032.076373
289.9149631,-0.478673642,1032.097269
289.9208326,-0.507258938,1032.118164
289.9267022,-0.507754219,1032.13906
289.9325717,-0.504880488,1032.159955
289.9384412,-0.51006801,1032.180851
289.9443107,-0.468023461,1032.201746
289.9501803,-0.480034753,1032.222642
289.9560498,-0.458007523,1032.243537
289.9619193,-0.457990763,1032.264433
289.9677889,-0.479102148,1032.285328
289.9736584,-0.461467979,1032.306224
289.9795279,-0.476381777,1032.327119
289.9853975,-0.458115207,1032.348015
289.991267,-0.441367392,1032.36891
289.9971365,-0.443397148,1032.389806
290.003006,-0.430421759,1032.410701
290.0088756,-0.430757279,1032.431597
290.0147451,-0.4413925,1032.452493
290.0206146,-0.443008735,1032.473388
290.0264842,-0.451531809,1032.494284
290.0323537,-0.455413025,1032.515179
290.0382232,-0.458269662,1032.536075
290.0440927,-0.464310167,1032.55697
290.0499623,-0.446735064,1032.577866
290.0558318,-0.443364096,1032.598761
290.0617013,-0.441647686,1032.619657
290.0675709,-0.429531474,1032.640552
290.0734404,-0.438463239,1032.661448
290.0793099,-0.423950486,1032.682343
290.0851794,-0.409651846,1032.703239
290.091049,-0.397148033,1032.724134
290.0969185,-0.379432734,1032.74503
290.102788,-0.365613608,1032.765925
290.1086576,-0.382056846,1032.786821
290.1145271,-0.381850051,1032.807716
290.1203966,-0.386798654,1032.828612
290.1262661,-0.394710194,1032.849507
290.1321357,-0.384683882,1032.870403
290.1380052,-0.395696713,1032.891299
290.1438747,-0.397686718,1032.912194
290.1497443,-0.387451213,1032.93309
290.1556138,-0.363766058,1032.953985
290.1614833,-0.331422791,1032.974881
290.1673528,-0.33369316,1032.995776
290.1732224,-0.326890585,1033.016672
290.1790919,-0.333190287,1033.037567
290.1849614,-0.365563444,1033.058463
290.190831,-0.358364667,1033.079358
290.1967005,-0.363733925,1033.100254
290.20257,-0.353561169,1033.121149
290.2084395,-0.337687545,1033.142045
290.2143091,-0.346611177,1033.16294
290.2201786,-0.359033923,1033.183836
290.2260481,-0.362919071,1033.204731
290.2319177,-0.37131962,1033.225627
290.2377872,-0.383979766,1033.246522
290.2436567,-0.381228697,1033.267418
290.2495262,-0.361239608,1033.288313
290.2553958,-0.377436808,1033.309209
290.2612653,-0.357515547,1033.330104
290.2671348,-0.365869864,1033.351
290.2730044,-0.400253824,1033.371896
290.2788739,-0.356039374,1033.392791
290.2847434,-0.382908631,1033.413687
290.2906129,-0.384682585,1033.434582
290.2964825,-0.37360313,1033.455478
290.302352,-0.424205365,1033.476373
290.3082215,-0.399452139,1033.497269
290.3140911,-0.395107242,1033.518164
290.3199606,-0.413596005,1033.53906
290.3258301,-0.400075461,1033.559955
290.3316996,-0.400706257,1033.580851
290.3375692,-0.428072712,1033.601746
290.3434387,-0.439751621,1033.622642
290.3493082,-0.449273941,1033.643537
290.3551778,-0.45620535,1033.664433
290.3610473,-0.439959843,1033.685328
290.3669168,-0.450695378,1033.706224
290.3727863,-0.441538983,1033.727119
290.3786559,-0.441346866,1033.748015
290.3845254,-0.451030946,1033.76891
290.3903949,-0.442109301,1033.789806
290.3962645,-0.447688143,1033.810701
290.402134,-0.464928643,1033.831597
290.4080035,-0.474191323,1033.852493
290.4138731,-0.446126714,1033.873388
290.4197426,-0.446819904,1033.894284
290.4256121,-0.445795331,1033.915179
290.4314816,-0.448778757,1033.936075
290.4373512,-0.452312482,1033.95697
290.4432207,-0.462380965,1033.977866
290.4490902,-0.447901528,1033.998761
290.4549598,-0.446898046,1034.019657
290.4608293,-0.456323114,1034.040552
290.4666988,-0.456185569,1034.061448
290.4725683,-0.45450016,1034.082343
290.4784379,-0.429477152,1034.103239
290.4843074,-0.450481222,1034.124134
290.4901769,-0.433090167,1034.14503
290.4960465,-0.454753225,1034.165925
290.501916,-0.478568438,1034.186821
290.5077855,-0.464323734,1034.207716
290.513655,-0.477402129,1034.228612
290.5195246,-0.469535312,1034.249507
290.5253941,-0.471472214,1034.270403
290.5312636,-0.454596417,1034.291299
290.5371332,-0.430139855,1034.312194
290.5430027,-0.420388741,1034.33309
290.5488722,-0.397183584,1034.353985
290.5547417,-0.418326405,1034.374881
290.5606113,-0.450393767,1034.395776
290.5664808,-0.464669076,1034.416672
290.5723503,-0.475068994,1034.437567
290.5782199,-0.480744695,1034.458463
290.5840894,-0.450377175,1034.479358
290.5899589,-0.46344715,1034.500254
290.5958284,-0.431623144,1034.521149
290.601698,-0.417822125,1034.542045
290.6075675,-0.429917861,1034.56294
290.613437,-0.404066724,1034.583836
290.6193066,-0.444575456,1034.604731
290.6251761,-0.455771169,1034.625627
290.6310456,-0.448506351,1034.646522
290.6369151,-0.440474158,1034.667418
290.6427847,-0.418323794,1034.688313
290.6486542,-0.398519124,1034.709209
290.6545237,-0.39920112,1034.730104
290.6603933,-0.415046031,1034.751
290.6662628,-0.423476993,1034.771896
290.6721323,-0.431015089,1034.792791
290.6780018,-0.442060972,1034.813687
290.6838714,-0.437556647,1034.834582
290.6897409,-0.447540431,1034.855478
290.6956104,-0.439779939,1034.876373
290.70148,-0.450409454,1034.897269
290.7073495,-0.465347143,1034.918164
290.713219,-0.450152444,1034.93906
290.7190885,-0.461195676,1034.959955
290.7249581,-0.462458554,1034.980851
290.7308276,-0.437093885,1035.001746
290.7366971,-0.447489,1035.022642
290.7425667,-0.453888154,1035.043537
290.7484362,-0.436013911,1035.064433
290.7543057,-0.466697383,1035.085328
290.7601752,-0.468350296,1035.106224
290.7660448,-0.44388484,1035.127119
290.7719143,-0.455483116,1035.148015
290.7777838,-0.445716683,1035.16891
290.7836534,-0.463295522,1035.189806
290.7895229,-0.484540469,1035.210701
290.7953924,-0.470288224,1035.231597
290.8012619,-0.453145192,1035.252493
290.8071315,-0.442454116,1035.273388
290.813001,-0.455155983,1035.294284
290.8188705,-0.468696352,1035.315179
290.8247401,-0.493747575,1035.336075
290.8306096,-0.479175692,1035.35697
290.8364791,-0.469534364,1035.377866
290.8423487,-0.465870084,1035.398761
290.8482182,-0.446695059,1035.419657
290.8540877,-0.44259822,1035.440552
290.8599572,-0.447634017,1035.461448
290.8658268,-0.446675902,1035.482343
290.8716963,-0.459440946,1035.503239
290.8775658,-0.490566227,1035.524134
290.8834354,-0.485776285,1035.54503
290.8893049,-0.494882638,1035.565925
290.8951744,-0.495025742,1035.586821
290.9010439,-0.46708722,1035.607716
290.9069135,-0.440247005,1035.628612
290.912783,-0.41330388,1035.649507
290.9186525,-0.398738076,1035.670403
290.9245221,-0.422605441,1035.691299
290.9303916,-0.448532111,1035.712194
290.9362611,-0.461251125,1035.73309
290.9421306,-0.459865527,1035.753985
290.9480002,-0.446864291,1035.774881
290.9538697,-0.430790967,1035.795776
290.9597392,-0.419492825,1035.816672
290.9656088,-0.434692721,1035.837567
290.9714783,-0.418957887,1035.858463
290.9773478,-0.436518304,1035.879358
290.9832173,-0.447992197,1035.900254
290.9890869,-0.450432889,1035.921149
290.9949564,-0.459007588,1035.942045
291.0008259,-0.463268232,1035.96294
291.0066955,-0.453366437,1035.983836
291.012565,-0.443610962,1036.004731
291.0184345,-0.444567961,1036.025627
291.024304,-0.431494261,1036.046522
291.0301736,-0.445713652,1036.067418
291.0360431,-0.445441064,1036.088313
291.0419126,-0.461518293,1036.109209
291.0477822,-0.469768751,1036.130104
291.0536517,-0.449695872,1036.151
291.0595212,-0.456061144,1036.171896
291.0653907,-0.446425437,1036.192791
291.0712603,-0.442993819,1036.213687
291.0771298,-0.452904092,1036.234582
291.0829993,-0.440353018,1036.255478
291.0888689,-0.407368832,1036.276373
291.0947384,-0.406242135,1036.297269
291.1006079,-0.438861483,1036.318164
291.1064774,-0.444596004,1036.33906
291.112347,-0.458856723,1036.359955
291.1182165,-0.447392271,1036.380851
291.124086,-0.415288067,1036.401746
291.1299556,-0.413408061,1036.422642
291.1358251,-0.441459293,1036.443537
291.1416946,-0.425524556,1036.464433
291.1475641,-0.427626476,1036.485328
291.1534337,-0.427757995,1036.506224
291.1593032,-0.403628045,1036.527119
291.1651727,-0.441907931,1036.548015
291.1710423,-0.427129931,1036.56891
291.1769118,-0.425072696,1036.589806
291.1827813,-0.438023313,1036.610701
291.1886508,-0.420059882,1036.631597
291.1945204,-0.435985803,1036.652493
291.2003899,-0.443486499,1036.673388
291.2062594,-0.427838358,1036.694284
291.212129,-0.429223088,1036.715179
291.2179985,-0.412186206,1036.736075
291.223868,-0.420997878,1036.75697
291.2297375,-0.42183739,1036.777866
291.2356071,-0.409003857,1036.798761
291.2414766,-0.439460949,1036.819657
291.2473461,-0.412254413,1036.840552
291.2532157,-0.406429023,1036.861448
291.2590852,-0.426718714,1036.882343
291.2649547,-0.40586873,1036.903239
291.2708242,-0.425240506,1036.924134
291.2766938,-0.431124139,1036.94503
291.2825633,-0.402579834,1036.965925
291.2884328,-0.41332156,1036.986821
291.2943024,-0.422686674,1037.007716
291.3001719,-0.425610029,1037.028612
291.3060414,-0.440564966,1037.049507
291.311911,-0.455671841,1037.070403
291.3177805,-0.451676235,1037.091299
291.32365,-0.454850777,1037.112194
291.3295195,-0.450575265,1037.13309
291.3353891,-0.421912255,1037.153985
291.3412586,-0.419945728,1037.174881
291.3471281,-0.427614179,1037.195776
291.3529977,-0.450018474,1037.216672
291.3588672,-0.467066716,1037.237567
291.3647367,-0.454773938,1037.258463
291.3706062,-0.444287665,1037.279358
291.3764758,-0.430268051,1037.300254
291.3823453,-0.426002185,1037.321149
291.3882148,-0.414841226,1037.342045
291.3940844,-0.405519805,1037.36294
291.3999539,-0.384326753,1037.383836
291.4058234,-0.36829432,1037.404731
291.4116929,-0.362015793,1037.425627
291.4175625,-0.380211833,1037.446522
291.423432,-0.409789895,1037.467418
291.4293015,-0.432468348,1037.488313
291.4351711,-0.4383244,1037.509209
291.4410406,-0.42972448,1037.530104
291.4469101,-0.414526233,1037.551
291.4527796,-0.402894619,1037.571896
291.4586492,-0.400311288,1037.592791
291.4645187,-0.404037981,1037.613687
291.4703882,-0.391678247,1037.634582
291.4762578,-0.392405571,1037.655478
291.4821273,-0.401420936,1037.676373
291.4879968,-0.38914863,1037.697269
291.4938663,-0.416126623,1037.718164
291.4997359,-0.422230259,1037.73906
291.5056054,-0.426229458,1037.759955
291.5114749,-0.440454703,1037.780851
291.5173445,-0.41466192,1037.801746
291.523214,-0.428022102,1037.822642
291.5290835,-0.4353253,1037.843537
291.534953,-0.443205682,1037.864433
291.5408226,-0.47190911,1037.885328
291.5466921,-0.468449406,1037.906224
291.5525616,-0.471903948,1037.927119
291.5584312,-0.472882914,1037.948015
291.5643007,-0.462355661,1037.96891
291.5701702,-0.459358305,1037.989806
291.5760397,-0.444257669,1038.010701
291.5819093,-0.435204426,1038.031597
291.5877788,-0.429668245,1038.052493
291.5936483,-0.422228591,1038.073388
291.5995179,-0.413698164,1038.094284
291.6053874,-0.403247193,1038.115179
291.6112569,-0.40818246,1038.136075
291.6171264,-0.409381198,1038.15697
291.622996,-0.438219813,1038.177866
291.6288655,-0.434582893,1038.198761
291.634735,-0.412097256,1038.219657
291.6406046,-0.413027577,1038.240552
291.6464741,-0.40771059,1038.261448
291.6523436,-0.382602732,1038.282343
291.6582131,-0.407032738,1038.303239
291.6640827,-0.376895537,1038.324134
291.6699522,-0.349617203,1038.34503
291.6758217,-0.392952029,1038.365925
291.6816913,-0.388391226,1038.386821
291.6875608,-0.415195359,1038.407716
291.6934303,-0.415517845,1038.428612
291.6992998,-0.389844109,1038.449507
291.7051694,-0.392801307,1038.470403
291.7110389,-0.385798246,1038.491299
291.7169084,-0.399675657,1038.512194
291.722778,-0.400938838,1038.53309
291.7286475,-0.407265173,1038.553985
291.734517,-0.415490711,1038.574881
291.7403866,-0.405381187,1038.595776
291.7462561,-0.434915899,1038.616672
291.7521256,-0.405000304,1038.637567
291.7579951,-0.387572088,1038.658463
291.7638647,-0.402620695,1038.679358
291.7697342,-0.382991617,1038.700254
291.7756037,-0.415804277,1038.721149
291.7814733,-0.427114832,1038.742045
291.7873428,-0.42540308,1038.76294
291.7932123,-0.416495751,1038.783836
291.7990818,-0.384702496,1038.804731
291.8049514,-0.390307885,1038.825627
291.8108209,-0.3828139,1038.846522
291.8166904,-0.392475901,1038.867418
291.82256,-0.430738476,1038.888313
291.8284295,-0.427733973,1038.909209
291.834299,-0.430211643,1038.930104
291.8401685,-0.425870425,1038.951
291.8460381,-0.411399134,1038.971896
291.8519076,-0.396993908,1038.992791
291.8577771,-0.38246801,1039.013687
291.8636467,-0.394510955,1039.034582
291.8695162,-0.401879256,1039.055478
291.8753857,-0.391479006,1039.076373
291.8812552,-0.394578456,1039.097269
291.8871248,-0.380586876,1039.118164
291.8929943,-0.368318529,1039.13906
291.8988638,-0.396183856,1039.159955
291.9047334,-0.392130305,1039.180851
291.9106029,-0.392041794,1039.201746
291.9164724,-0.390499693,1039.222642
291.9223419,-0.387597028,1039.243537
291.9282115,-0.413002808,1039.264433
291.934081,-0.428073033,1039.285328
291.9399505,-0.432891601,1039.306224
291.9458201,-0.422727567,1039.327119
291.9516896,-0.391647205,1039.348015
291.9575591,-0.377405497,1039.36891
291.9634286,-0.369567438,1039.389806
291.9692982,-0.384674304,1039.410701
291.9751677,-0.415046138,1039.431597
291.9810372,-0.407109769,1039.452493
291.9869068,-0.408882233,1039.473388
291.9927763,-0.429163937,1039.494284
291.9986458,-0.427290864,1039.515179
292.0045153,-0.451880141,1039.536075
292.0103849,-0.469899769,1039.55697
292.0162544,-0.440480043,1039.577866
292.0221239,-0.415948771,1039.598761
292.0279935,-0.399536405,1039.619657
292.033863,-0.379736022,1039.640552
292.0397325,-0.382107418,1039.661448
292.045602,-0.389253766,1039.682343
292.0514716,-0.401587646,1039.703239
292.0573411,-0.400541033,1039.724134
292.0632106,-0.406563908,1039.74503
292.0690802,-0.406290922,1039.765925
292.0749497,-0.417679714,1039.786821
292.0808192,-0.417571702,1039.807716
292.0866887,-0.403409736,1039.828612
292.0925583,-0.417800732,1039.849507
292.0984278,-0.389583516,1039.870403
292.1042973,-0.373679722,1039.891299
292.1101669,-0.372828298,1039.912194
292.1160364,-0.367730601,1039.93309
292.1219059,-0.360469035,1039.953985
292.1277754,-0.373938491,1039.974881
292.133645,-0.366934519,1039.995776
292.1395145,-0.337526552,1040.016672
292.145384,-0.364989692,1040.037567
292.1512536,-0.358464211,1040.058463
292.1571231,-0.348237189,1040.079358
292.1629926,-0.391639969,1040.100254
292.1688621,-0.365032938,1040.121149
292.1747317,-0.392586424,1040.142045
292.1806012,-0.424195174,1040.16294
292.1864707,-0.389782303,1040.183836
292.1923403,-0.417966113,1040.204731
292.1982098,-0.393239148,1040.225627
292.2040793,-0.387317515,1040.246522
292.2099489,-0.405254255,1040.267418
292.2158184,-0.389726946,1040.288313
292.2216879,-0.404582646,1040.309209
292.2275574,-0.387135989,1040.330104
292.233427,-0.383813013,1040.351
292.2392965,-0.385384036,1040.371896
292.245166,-0.371001739,1040.392791
292.2510356,-0.373365062,1040.413687
292.2569051,-0.376549037,1040.434582
292.2627746,-0.365609345,1040.455478
292.2686441,-0.376446642,1040.476373
292.2745137,-0.375217299,1040.497269
292.2803832,-0.354615106,1040.518164
292.2862527,-0.360249574,1040.53906
292.2921223,-0.347494785,1040.559955
292.2979918,-0.371389749,1040.580851
292.3038613,-0.403110926,1040.601746
292.3097308,-0.395080268,1040.622642
292.3156004,-0.391559503,1040.643537
292.3214699,-0.368898089,1040.664433
292.3273394,-0.34733533,1040.685328
292.333209,-0.352997533,1040.706224
292.3390785,-0.360167453,1040.727119
292.344948,-0.377858726,1040.748015
292.3508175,-0.392910176,1040.76891
292.3566871,-0.405650096,1040.789806
292.3625566,-0.393355964,1040.810701
292.3684261,-0.382001562,1040.831597
292.3742957,-0.366972621,1040.852493
292.3801652,-0.370487483,1040.873388
292.3860347,-0.38699572,1040.894284
292.3919042,-0.398020248,1040.915179
292.3977738,-0.41122317,1040.936075
292.4036433,-0.408265973,1040.95697
292.4095128,-0.414746289,1040.977866
292.4153824,-0.418174309,1040.998761
292.4212519,-0.397615561,1041.019657
292.4271214,-0.398651092,1041.040552
292.4329909,-0.370918359,1041.061448
292.4388605,-0.362021932,1041.082343
292.44473,-0.381078348,1041.103239
292.4505995,-0.368130179,1041.124134
292.4564691,-0.368479627,1041.14503
292.4623386,-0.384003508,1041.165925
292.4682081,-0.389596178,1041.186821
292.4740776,-0.395963885,1041.207716
292.4799472,-0.40089724,1041.228612
292.4858167,-0.364657263,1041.249507
292.4916862,-0.349108643,1041.270403
292.4975558,-0.338913092,1041.291299
292.5034253,-0.360038695,1041.312194
292.5092948,-0.384017369,1041.33309
292.5151643,-0.377876428,1041.353985
292.5210339,-0.391302927,1041.374881
292.5269034,-0.389741704,1041.395776
292.5327729,-0.373011399,1041.416672
292.5386425,-0.382461363,1041.437567
292.544512,-0.3654077,1041.458463
292.5503815,-0.355219883,1041.479358
292.556251,-0.356618529,1041.500254
292.5621206,-0.336309096,1041.521149
292.5679901,-0.344197428,1041.542045
292.5738596,-0.348721536,1041.56294
292.5797292,-0.356153248,1041.583836
292.5855987,-0.395571039,1041.604731
292.5914682,-0.394073454,1041.625627
292.5973377,-0.410317626,1041.646522
292.6032073,-0.401073011,1041.667418
292.6090768,-0.392921287,1041.688313
292.6149463,-0.429230288,1041.709209
292.6208159,-0.42266263,1041.730104
292.6266854,-0.410914606,1041.751
292.6325549,-0.403625605,1041.771896
292.6384245,-0.383931181,1041.792791
292.644294,-0.376610671,1041.813687
292.6501635,-0.37668831,1041.834582
292.656033,-0.365049958,1041.855478
292.6619026,-0.344329933,1041.876373
292.6677721,-0.349095508,1041.897269
292.6736416,-0.363024023,1041.918164
292.6795112,-0.368289252,1041.93906
292.6853807,-0.356431095,1041.959955
292.6912502,-0.35567524,1041.980851
292.6971197,-0.340439389,1042.001746
292.7029893,-0.334532673,1042.022642
292.7088588,-0.353194778,1042.043537
292.7147283,-0.322349469,1042.064433
292.7205979,-0.326764054,1042.085328
292.7264674,-0.3494528,1042.106224
292.7323369,-0.363995399,1042.127119
292.7382064,-0.381403525,1042.148015
292.744076,-0.384024087,1042.16891
292.7499455,-0.36957215,1042.189806
292.755815,-0.353581861,1042.210701
292.7616846,-0.342402015,1042.231597
292.7675541,-0.331863561,1042.252493
292.7734236,-0.337157401,1042.273388
292.7792931,-0.327086564,1042.294284
292.7851627,-0.349209847,1042.315179
292.7910322,-0.367638035,1042.336075
292.7969017,-0.354953963,1042.35697
292.8027713,-0.367197128,1042.377866
292.8086408,-0.363463446,1042.398761
292.8145103,-0.350765464,1042.419657
292.8203798,-0.348022,1042.440552
292.8262494,-0.343514992,1042.461448
292.8321189,-0.334145597,1042.482343
292.8379884,-0.366374654,1042.503239
292.843858,-0.383776829,1042.524134
292.8497275,-0.387844613,1042.54503
292.855597,-0.388305821,1042.565925
292.8614665,-0.356724401,1042.586821
292.8673361,-0.360180823,1042.607716
292.8732056,-0.37163075,1042.628612
292.8790751,-0.39350836,1042.649507
292.8849447,-0.388960406,1042.670403
292.8908142,-0.371815218,1042.691299
292.8966837,-0.367689481,1042.712194
292.9025532,-0.348751063,1042.73309
292.9084228,-0.352208551,1042.753985
292.9142923,-0.378301618,1042.774881
292.9201618,-0.385077033,1042.795776
292.9260314,-0.383628541,1042.816672
292.9319009,-0.396969574,1042.837567
292.9377704,-0.37170193,1042.858463
292.9436399,-0.345068955,1042.879358
292.9495095,-0.343052778,1042.900254
292.955379,-0.339285511,1042.921149
292.9612485,-0.358241368,1042.942045
292.9671181,-0.391403353,1042.96294
292.9729876,-0.396059331,1042.983836
292.9788571,-0.389984311,1043.004731
292.9847266,-0.378939292,1043.025627
292.9905962,-0.345842128,1043.046522
292.9964657,-0.355793984,1043.067418
293.0023352,-0.358666135,1043.088313
293.0082048,-0.353348509,1043.109209
293.0140743,-0.369511655,1043.130104
293.0199438,-0.372832699,1043.151
293.0258133,-0.401774557,1043.171896
293.0316829,-0.389565024,1043.192791
293.0375524,-0.367093667,1043.213687
293.0434219,-0.346736011,1043.234582
293.0492915,-0.339119789,1043.255478
293.055161,-0.352036647,1043.276373
293.0610305,-0.368090749,1043.297269
293.0669001,-0.401726615,1043.318164
293.0727696,-0.400270571,1043.33906
293.0786391,-0.405926061,1043.359955
293.0845086,-0.418833196,1043.380851
293.0903782,-0.42355695,1043.401746
293.0962477,-0.413578106,1043.422642
293.1021172,-0.426523945,1043.443537
293.1079868,-0.458830656,1043.464433
293.1138563,-0.437505465,1043.485328
293.1197258,-0.423750496,1043.506224
293.1255953,-0.41651548,1043.527119
293.1314649,-0.36639453,1043.548015
293.1373344,-0.358100975,1043.56891
293.1432039,-0.360197676,1043.589806
293.1490735,-0.366777481,1043.610701
293.154943,-0.358317677,1043.631597
293.1608125,-0.358523199,1043.652493
293.166682,-0.370645272,1043.673388
293.1725516,-0.370696907,1043.694284
293.1784211,-0.375911997,1043.715179
293.1842906,-0.3849632,1043.736075
293.1901602,-0.393496588,1043.75697
293.1960297,-0.372832057,1043.777866
293.2018992,-0.37350393,1043.798761
293.2077687,-0.356253896,1043.819657
293.2136383,-0.35355759,1043.840552
293.2195078,-0.361667221,1043.861448
293.2253773,-0.382757852,1043.882343
293.2312469,-0.385426565,1043.903239
293.2371164,-0.381620342,1043.924134
293.2429859,-0.372140571,1043.94503
293.2488554,-0.362330229,1043.965925
293.254725,-0.36298561,1043.986821
293.2605945,-0.355401756,1044.007716
293.266464,-0.357354986,1044.028612
293.2723336,-0.360246278,1044.049507
293.2782031,-0.366226784,1044.070403
293.2840726,-0.366478857,1044.091299
293.2899421,-0.360015436,1044.112194
293.2958117,-0.346710255,1044.13309
293.3016812,-0.340653067,1044.153985
293.3075507,-0.331533059,1044.174881
293.3134203,-0.330869134,1044.195776
293.3192898,-0.351553598,1044.216672
293.3251593,-0.341824903,1044.237567
293.3310288,-0.352549678,1044.258463
293.3368984,-0.36258456,1044.279358
293.3427679,-0.364171228,1044.300254
293.3486374,-0.358115583,1044.321149
293.354507,-0.361633259,1044.342045
293.3603765,-0.355189819,1044.36294
293.366246,-0.322946064,1044.383836
293.3721155,-0.338084599,1044.404731
293.3779851,-0.330891531,1044.425627
293.3838546,-0.338050337,1044.446522
293.3897241,-0.335967506,1044.467418
293.3955937,-0.333126694,1044.488313
293.4014632,-0.332557549,1044.509209
293.4073327,-0.319410903,1044.530104
293.4132022,-0.328130122,1044.551
293.4190718,-0.350573768,1044.571896
293.4249413,-0.358037112,1044.592791
293.4308108,-0.363092188,1044.613687
293.4366804,-0.358925186,1044.634582
293.4425499,-0.346446113,1044.655478
293.4484194,-0.344531368,1044.676373
293.4542889,-0.350304202,1044.697269
293.4601585,-0.354250165,1044.718164
293.466028,-0.362917513,1044.73906
293.4718975,-0.357064713,1044.759955
293.4777671,-0.365441789,1044.780851
293.4836366,-0.379069389,1044.801746
293.4895061,-0.353980465,1044.822642
293.4953756,-0.370750078,1044.843537
293.5012452,-0.383482897,1044.864433
293.5071147,-0.37432411,1044.885328
293.5129842,-0.376839999,1044.906224
293.5188538,-0.350766776,1044.927119
293.5247233,-0.321168648,1044.948015
293.5305928,-0.322854499,1044.96891
293.5364624,-0.339227768,1044.989806
293.5423319,-0.368306873,1045.010701
293.5482014,-0.382444731,1045.031597
293.5540709,-0.371222235,1045.052493
293.5599405,-0.369728909,1045.073388
293.56581,-0.359017925,1045.094284
293.5716795,-0.356876682,1045.115179
293.5775491,-0.374538264,1045.136075
293.5834186,-0.374330247,1045.15697
293.5892881,-0.373588687,1045.177866
293.5951576,-0.36651372,1045.198761
293.6010272,-0.367562323,1045.219657
293.6068967,-0.37023924,1045.240552
293.6127662,-0.366376024,1045.261448
293.6186358,-0.379645465,1045.282343
293.6245053,-0.370589173,1045.303239
293.6303748,-0.365960011,1045.324134
293.6362443,-0.346142679,1045.34503
293.6421139,-0.329606669,1045.365925
293.6479834,-0.333481882,1045.386821
293.6538529,-0.331875721,1045.407716
293.6597225,-0.323833143,1045.428612
293.665592,-0.326586584,1045.449507
293.6714615,-0.313181612,1045.470403
293.677331,-0.309053993,1045.491299
293.6832006,-0.34597901,1045.512194
293.6890701,-0.361056548,1045.53309
293.6949396,-0.384915915,1045.553985
293.7008092,-0.398927374,1045.574881
293.7066787,-0.371419624,1045.595776
293.7125482,-0.352327766,1045.616672
293.7184177,-0.322916174,1045.637567
293.7242873,-0.324306505,1045.658463
293.7301568,-0.319031082,1045.679358
293.7360263,-0.305389546,1045.700254
293.7418959,-0.303430359,1045.721149
293.7477654,-0.290601642,1045.742045
293.7536349,-0.325767582,1045.76294
293.7595044,-0.349204401,1045.783836
293.765374,-0.373316926,1045.804731
293.7712435,-0.355327385,1045.825627
293.777113,-0.328723704,1045.846522
293.7829826,-0.322136219,1045.867418
293.7888521,-0.313915382,1045.888313
293.7947216,-0.324575149,1045.909209
293.8005911,-0.327292487,1045.930104
293.8064607,-0.333986246,1045.951
293.8123302,-0.342433347,1045.971896
293.8181997,-0.352030246,1045.992791
293.8240693,-0.371556325,1046.013687
293.8299388,-0.367597473,1046.034582
293.8358083,-0.376171319,1046.055478
293.8416778,-0.362581428,1046.076373
293.8475474,-0.335449669,1046.097269
293.8534169,-0.343853759,1046.118164
293.8592864,-0.353864993,1046.13906
293.865156,-0.349491395,1046.159955
293.8710255,-0.368066156,1046.180851
293.876895,-0.351659343,1046.201746
293.8827645,-0.324367991,1046.222642
293.8886341,-0.343871329,1046.243537
293.8945036,-0.340078816,1046.264433
293.9003731,-0.344928978,1046.285328
293.9062427,-0.344839713,1046.306224
293.9121122,-0.338930193,1046.327119
293.9179817,-0.336781506,1046.348015
293.9238512,-0.33071618,1046.36891
293.9297208,-0.329821045,1046.389806
293.9355903,-0.328425118,1046.410701
293.9414598,-0.350986317,1046.431597
293.9473294,-0.333283773,1046.452493
293.9531989,-0.30986207,1046.473388
293.9590684,-0.305875401,1046.494284
293.964938,-0.289478758,1046.515179
293.9708075,-0.29962279,1046.536075
293.976677,-0.334685938,1046.55697
293.9825465,-0.338328153,1046.577866
293.9884161,-0.319610524,1046.598761
293.9942856,-0.348337553,1046.619657
294.0001551,-0.35248132,1046.640552
294.0060247,-0.371063214,1046.661448
294.0118942,-0.391457544,1046.682343
294.0177637,-0.353654282,1046.703239
294.0236332,-0.338505831,1046.724134
294.0295028,-0.320786436,1046.74503
294.0353723,-0.33426858,1046.765925
294.0412418,-0.358599538,1046.786821
294.0471114,-0.34972655,1046.807716
294.0529809,-0.350505884,1046.828612
294.0588504,-0.327248344,1046.849507
294.0647199,-0.333368357,1046.870403
294.0705895,-0.353142524,1046.891299
294.076459,-0.356311881,1046.912194
294.0823285,-0.364890149,1046.93309
294.0881981,-0.352221676,1046.953985
294.0940676,-0.340753984,1046.974881
294.0999371,-0.344644759,1046.995776
294.1058066,-0.343849605,1047.016672
294.1116762,-0.346226298,1047.037567
294.1175457,-0.356936714,1047.058463
294.1234152,-0.329427816,1047.079358
294.1292848,-0.333302123,1047.100254
294.1351543,-0.352901718,1047.121149
294.1410238,-0.344351482,1047.142045
294.1468933,-0.378657378,1047.16294
294.1527629,-0.368346467,1047.183836
294.1586324,-0.340373186,1047.204731
294.1645019,-0.334523212,1047.225627
294.1703715,-0.324735252,1047.246522
294.176241,-0.353182838,1047.267418
294.1821105,-0.362554416,1047.288313
294.18798,-0.340201544,1047.309209
294.1938496,-0.325265486,1047.330104
294.1997191,-0.303407696,1047.351
294.2055886,-0.306377826,1047.371896
294.2114582,-0.328475962,1047.392791
294.2173277,-0.324009255,1047.413687
294.2231972,-0.3163745,1047.434582
294.2290667,-0.326461822,1047.455478
294.2349363,-0.328857791,1047.476373
294.2408058,-0.353357103,1047.497269
294.2466753,-0.351335061,1047.518164
294.2525449,-0.348018941,1047.53906
294.2584144,-0.343136732,1047.559955
294.2642839,-0.33018869,1047.580851
294.2701534,-0.344562502,1047.601746
294.276023,-0.32048295,1047.622642
294.2818925,-0.327327666,1047.643537
294.287762,-0.346224196,1047.664433
294.2936316,-0.363408921,1047.685328
294.2995011,-0.377449949,1047.706224
294.3053706,-0.384729006,1047.727119
294.3112401,-0.368623796,1047.748015
294.3171097,-0.350687823,1047.76891
294.3229792,-0.34149505,1047.789806
294.3288487,-0.330079386,1047.810701
294.3347183,-0.320417737,1047.831597
294.3405878,-0.325468919,1047.852493
294.3464573,-0.322808767,1047.873388
294.3523268,-0.337002526,1047.894284
294.3581964,-0.350858708,1047.915179
294.3640659,-0.346101626,1047.936075
294.3699354,-0.376751784,1047.95697
294.375805,-0.367634165,1047.977866
294.3816745,-0.368027543,1047.998761
294.387544,-0.368122817,1048.019657
294.3934136,-0.352308164,1048.040552
294.3992831,-0.362769054,1048.061448
294.4051526,-0.329556104,1048.082343
294.4110221,-0.348244266,1048.103239
294.4168917,-0.35091293,1048.124134
294.4227612,-0.3406678,1048.14503
294.4286307,-0.373142244,1048.165925
294.4345003,-0.363153068,1048.186821
294.4403698,-0.375821077,1048.207716
294.4462393,-0.365737618,1048.228612
294.4521088,-0.334820488,1048.249507
294.4579784,-0.325735867,1048.270403
294.4638479,-0.30345759,1048.291299
294.4697174,-0.301076475,1048.312194
294.475587,-0.32661401,1048.33309
294.4814565,-0.310653386,1048.353985
294.487326,-0.312032738,1048.374881
294.4931955,-0.322893108,1048.395776
294.4990651,-0.331852666,1048.416672
294.5049346,-0.351803554,1048.437567
294.5108041,-0.356277465,1048.458463
294.5166737,-0.353887973,1048.479358
294.5225432,-0.343622118,1048.500254
294.5284127,-0.347023919,1048.521149
294.5342822,-0.348108194,1048.542045
294.5401518,-0.341675481,1048.56294
294.5460213,-0.328875527,1048.583836
294.5518908,-0.296863464,1048.604731
294.5577604,-0.309839788,1048.625627
294.5636299,-0.319072008,1048.646522
294.5694994,-0.321346729,1048.667418
294.5753689,-0.340910141,1048.688313
294.5812385,-0.31776648,1048.709209
294.587108,-0.340741993,1048.730104
294.5929775,-0.352497704,1048.751
294.5988471,-0.353856176,1048.771896
294.6047166,-0.364235617,1048.792791
294.6105861,-0.336926027,1048.813687
294.6164556,-0.318594599,1048.834582
294.6223252,-0.332393666,1048.855478
294.6281947,-0.343243088,1048.876373
294.6340642,-0.363738002,1048.897269
294.6399338,-0.357029434,1048.918164
294.6458033,-0.351775862,1048.93906
294.6516728,-0.338814774,1048.959955
294.6575423,-0.329043865,1048.980851
294.6634119,-0.345549625,1049.001746
294.6692814,-0.327262364,1049.022642
294.6751509,-0.321280865,1049.043537
294.6810205,-0.312053548,1049.064433
294.68689,-0.321551121,1049.085328
294.6927595,-0.314524469,1049.106224
294.698629,-0.316976483,1049.127119
294.7044986,-0.329221125,1049.148015
294.7103681,-0.336056086,1049.16891
294.7162376,-0.325360855,1049.189806
294.7221072,-0.317150136,1049.210701
294.7279767,-0.306356472,1049.231597
294.7338462,-0.291752395,1049.252493
294.7397157,-0.328608415,1049.273388
294.7455853,-0.332257096,1049.294284
294.7514548,-0.325481633,1049.315179
294.7573243,-0.325521286,1049.336075
294.7631939,-0.326125604,1049.35697
294.7690634,-0.347470844,1049.377866
294.7749329,-0.368424466,1049.398761
294.7808024,-0.348427526,1049.419657
294.786672,-0.335505482,1049.440552
294.7925415,-0.319249951,1049.461448
294.798411,-0.301066879,1049.482343
294.8042806,-0.305545351,1049.503239
294.8101501,-0.292760193,1049.524134
294.8160196,-0.308086393,1049.54503
294.8218891,-0.306518621,1049.565925
294.8277587,-0.332111027,1049.586821
294.8336282,-0.34043909,1049.607716
294.8394977,-0.321902045,1049.628612
294.8453673,-0.329673699,1049.649507
294.8512368,-0.328363749,1049.670403
294.8571063,-0.347026359,1049.691299
294.8629759,-0.356272035,1049.712194
294.8688454,-0.372683253,1049.73309
294.8747149,-0.372021742,1049.753985
294.8805844,-0.360534597,1049.774881
294.886454,-0.332137181,1049.795776
294.8923235,-0.316838257,1049.816672
294.898193,-0.305005737,1049.837567
294.9040626,-0.299412142,1049.858463
294.9099321,-0.308243355,1049.879358
294.9158016,-0.311553192,1049.900254
294.9216711,-0.324939451,1049.921149
294.9275407,-0.329050282,1049.942045
294.9334102,-0.34523882,1049.96294
294.9392797,-0.335894553,1049.983836
294.9451493,-0.31866684,1050.004731
294.9510188,-0.314379043,1050.025627
294.9568883,-0.324531775,1050.046522
294.9627578,-0.312059814,1050.067418
294.9686274,-0.334755294,1050.088313
294.9744969,-0.336692281,1050.109209
294.9803664,-0.330489593,1050.130104
294.986236,-0.355285511,1050.151
294.9921055,-0.364691449,1050.171896
294.997975,-0.391237603,1050.192791
295.0038445,-0.381840132,1050.213687
295.0097141,-0.353816986,1050.234582
295.0155836,-0.327181364,1050.255478
295.0214531,-0.312529647,1050.276373
295.0273227,-0.326574999,1050.297269
295.0331922,-0.342173127,1050.318164
295.0390617,-0.327318396,1050.33906
295.0449312,-0.311081482,1050.359955
295.0508008,-0.298194657,1050.380851
295.0566703,-0.29396842,1050.401746
295.0625398,-0.308385025,1050.422642
295.0684094,-0.295581579,1050.443537
295.0742789,-0.28589989,1050.464433
295.0801484,-0.273691118,1050.485328
295.0860179,-0.271917506,1050.506224
295.0918875,-0.278797631,1050.527119
295.097757,-0.282146113,1050.548015
295.1036265,-0.312460141,1050.56891
295.1094961,-0.302968721,1050.589806
295.1153656,-0.306335811,1050.610701
295.1212351,-0.332541117,1050.631597
295.1271046,-0.339591386,1050.652493
295.1329742,-0.353736031,1050.673388
295.1388437,-0.367830243,1050.694284
295.1447132,-0.342780025,1050.715179
295.1505828,-0.346307017,1050.736075
295.1564523,-0.324909821,1050.75697
295.1623218,-0.301751694,1050.777866
295.1681913,-0.283009076,1050.798761
295.1740609,-0.236579251,1050.819657
295.1799304,-0.260366019,1050.840552
295.1857999,-0.270936119,1050.861448
295.1916695,-0.30590602,1050.882343
295.197539,-0.326130897,1050.903239
295.2034085,-0.320678783,1050.924134
295.209278,-0.321179237,1050.94503
295.2151476,-0.293824663,1050.965925
295.2210171,-0.296603683,1050.986821
295.2268866,-0.303830798,1051.007716
295.2327562,-0.328972335,1051.028612
295.2386257,-0.352490296,1051.049507
295.2444952,-0.340877139,1051.070403
295.2503647,-0.324911718,1051.091299
295.2562343,-0.295713762,1051.112194
295.2621038,-0.292132776,1051.13309
295.2679733,-0.293192061,1051.153985
295.2738429,-0.297879538,1051.174881
295.2797124,-0.301316391,1051.195776
295.2855819,-0.298678377,1051.216672
295.2914515,-0.317572742,1051.237567
295.297321,-0.319308519,1051.258463
295.3031905,-0.332600081,1051.279358
295.30906,-0.345048001,1051.300254
295.3149296,-0.326045057,1051.321149
295.3207991,-0.335024091,1051.342045
295.3266686,-0.315102076,1051.36294
295.3325382,-0.276144991,1051.383836
295.3384077,-0.279495727,1051.404731
295.3442772,-0.286836759,1051.425627
295.3501467,-0.297832362,1051.446522
295.3560163,-0.315927413,1051.467418
295.3618858,-0.333555475,1051.488313
295.3677553,-0.326138436,1051.509209
295.3736249,-0.327609544,1051.530104
295.3794944,-0.326861248,1051.551
295.3853639,-0.304057415,1051.571896
295.3912334,-0.281844985,1051.592791
295.397103,-0.275803161,1051.613687
295.4029725,-0.274765468,1051.634582
295.408842,-0.281905883,1051.655478
295.4147116,-0.290958608,1051.676373
295.4205811,-0.29375375,1051.697269
295.4264506,-0.316124156,1051.718164
295.4323201,-0.329008746,1051.73906
295.4381897,-0.36401975,1051.759955
295.4440592,-0.369446147,1051.780851
295.4499287,-0.35313104,1051.801746
295.4557983,-0.348444568,1051.822642
295.4616678,-0.326741758,1051.843537
295.4675373,-0.317252477,1051.864433
295.4734068,-0.309560858,1051.885328
295.4792764,-0.313064401,1051.906224
295.4851459,-0.311415406,1051.927119
295.4910154,-0.326623775,1051.948015
295.496885,-0.318378654,1051.96891
295.5027545,-0.316876412,1051.989806
295.508624,-0.310097223,1052.010701
295.5144935,-0.294781129,1052.031597
295.5203631,-0.31235305,1052.052493
295.5262326,-0.317385865,1052.073388
295.5321021,-0.338643976,1052.094284
295.5379717,-0.329884761,1052.115179
295.5438412,-0.334412478,1052.136075
295.5497107,-0.328953325,1052.15697
295.5555802,-0.313632801,1052.177866
295.5614498,-0.320958535,1052.198761
295.5673193,-0.303698431,1052.219657
295.5731888,-0.304405494,1052.240552
295.5790584,-0.272880662,1052.261448
295.5849279,-0.275903937,1052.282343
295.5907974,-0.28779063,1052.303239
295.5966669,-0.257989231,1052.324134
295.6025365,-0.270242665,1052.34503
295.608406,-0.253457724,1052.365925
295.6142755,-0.237707375,1052.386821
295.6201451,-0.250024679,1052.407716
295.6260146,-0.277090831,1052.428612
295.6318841,-0.294775216,1052.449507
295.6377536,-0.314958974,1052.470403
295.6436232,-0.320171769,1052.491299
295.6494927,-0.315193024,1052.512194
295.6553622,-0.328095538,1052.53309
295.6612318,-0.347170232,1052.553985
295.6671013,-0.351365576,1052.574881
295.6729708,-0.345396577,1052.595776
295.6788403,-0.334916019,1052.616672
295.6847099,-0.312766457,1052.637567
295.6905794,-0.310523191,1052.658463
295.6964489,-0.317163694,1052.679358
295.7023185,-0.327915031,1052.700254
295.708188,-0.32950782,1052.721149
295.7140575,-0.330694655,1052.742045
295.7199271,-0.346651547,1052.76294
295.7257966,-0.307954815,1052.783836
295.7316661,-0.281834462,1052.804731
295.7375356,-0.277643578,1052.825627
295.7434052,-0.248878192,1052.846522
295.7492747,-0.266739714,1052.867418
295.7551442,-0.291875105,1052.888313
295.7610138,-0.308506133,1052.909209
295.7668833,-0.318602399,1052.930104
295.7727528,-0.340725158,1052.951
295.7786223,-0.336373558,1052.971896
295.7844919,-0.320602822,1052.992791
295.7903614,-0.329280043,1053.013687
295.7962309,-0.295207953,1053.034582
295.8021005,-0.311946363,1053.055478
295.80797,-0.316445325,1053.076373
295.8138395,-0.296838904,1053.097269
295.819709,-0.314680654,1053.118164
295.8255786,-0.298902924,1053.13906
295.8314481,-0.302725633,1053.159955
295.8373176,-0.314467857,1053.180851
295.8431872,-0.30960473,1053.201746
295.8490567,-0.317973385,1053.222642
295.8549262,-0.30481872,1053.243537
295.8607957,-0.291183584,1053.264433
295.8666653,-0.301277166,1053.285328
295.8725348,-0.296388468,1053.306224
295.8784043,-0.298587652,1053.327119
295.8842739,-0.297167608,1053.348015
295.8901434,-0.308698423,1053.36891
295.8960129,-0.325012284,1053.389806
295.9018824,-0.333606939,1053.410701
295.907752,-0.347666766,1053.431597
295.9136215,-0.327747949,1053.452493
295.919491,-0.331959339,1053.473388
295.9253606,-0.323303916,1053.494284
295.9312301,-0.334892508,1053.515179
295.9370996,-0.314680508,1053.536075
295.9429691,-0.294175142,1053.55697
295.9488387,-0.302338414,1053.577866
295.9547082,-0.275737424,1053.598761
295.9605777,-0.31524798,1053.619657
295.9664473,-0.31647943,1053.640552
295.9723168,-0.340244792,1053.661448
295.9781863,-0.33350717,1053.682343
295.9840558,-0.314901976,1053.703239
295.9899254,-0.339237678,1053.724134
295.9957949,-0.301306821,1053.74503
296.0016644,-0.319918965,1053.765925
296.007534,-0.328055008,1053.786821
296.0134035,-0.286468557,1053.807716
296.019273,-0.298360724,1053.828612
296.0251425,-0.30248505,1053.849507
296.0310121,-0.295772246,1053.870403
296.0368816,-0.317719556,1053.891299
296.0427511,-0.307959718,1053.912194
296.0486207,-0.285277071,1053.93309
296.0544902,-0.300987436,1053.953985
296.0603597,-0.293461529,1053.974881
296.0662292,-0.30808757,1053.995776
296.0720988,-0.306659523,1054.016672
296.0779683,-0.309320225,1054.037567
296.0838378,-0.31852631,1054.058463
296.0897074,-0.342263514,1054.079358
296.0955769,-0.353059346,1054.100254
296.1014464,-0.322852848,1054.121149
296.1073159,-0.311121631,1054.142045
296.1131855,-0.265911683,1054.16294
296.119055,-0.290309072,1054.183836
296.1249245,-0.310625966,1054.204731
296.1307941,-0.321862135,1054.225627
296.1366636,-0.369065349,1054.246522
296.1425331,-0.372154201,1054.267418
296.1484026,-0.408824286,1054.288313
296.1542722,-0.435624951,1054.309209
296.1601417,-0.418719425,1054.330104
296.1660112,-0.43098501,1054.351